epoch,accuracy,auc,learning_rate,loss,precision,recall,val_accuracy,val_auc,val_loss,val_precision,val_recall
0,0.7694705724716187,0.9432768225669861,0.0010000000474974513,0.8711660504341125,0.8101863265037537,0.6963987946510315,0.8557941317558289,0.9765887260437012,0.7801457643508911,0.8905367851257324,0.8046292066574097
1,0.8476887941360474,0.9700940251350403,0.0010000000474974513,0.6314306855201721,0.8708863854408264,0.8121876120567322,0.8211511969566345,0.9713366031646729,0.723621666431427,0.8471057415008545,0.7922186851501465
2,0.8677371740341187,0.9773566126823425,0.0010000000474974513,0.5134588479995728,0.8865939974784851,0.8392502069473267,0.8735343217849731,0.9828330874443054,0.5686581134796143,0.888186514377594,0.8557941317558289
3,0.8772373199462891,0.9818274974822998,0.0010000000474974513,0.45060452818870544,0.8922491669654846,0.8543267846107483,0.8509973883628845,0.9816368818283081,0.5556749701499939,0.8581379055976868,0.8442211151123047
4,0.8947057127952576,0.9848990440368652,0.0010000000474974513,0.4018001854419708,0.9097238779067993,0.8743348717689514,0.7210294008255005,0.9447310566902161,0.8516240119934082,0.7299363017082214,0.6980356574058533
5,0.8918973207473755,0.9858630895614624,0.0010000000474974513,0.39593419432640076,0.9061388373374939,0.8729104995727539,0.8642454743385315,0.9833236336708069,0.5111370086669922,0.874862790107727,0.8495507836341858
6,0.8973931670188904,0.9863918423652649,0.0010000000474974513,0.35736700892448425,0.9090304970741272,0.8824509382247925,0.8911222815513611,0.9912238121032715,0.41935616731643677,0.8977712392807007,0.8832800388336182
7,0.9024052619934082,0.9889610409736633,0.0010000000474974513,0.3419896960258484,0.9130039215087891,0.889559268951416,0.7716613411903381,0.947155773639679,0.8410208225250244,0.7810143828392029,0.7492005228996277
8,0.9062483310699463,0.9893406629562378,0.0010000000474974513,0.33752378821372986,0.9153223037719727,0.8943026065826416,0.8718593120574951,0.9837514758110046,0.4938848614692688,0.8824722766876221,0.8609715104103088
9,0.9169846773147583,0.9913008809089661,0.0010000000474974513,0.30660876631736755,0.9246306419372559,0.9073233008384705,0.931399405002594,0.9944435358047485,0.33676981925964355,0.938166618347168,0.9241662621498108
10,0.9127116203308105,0.9911578893661499,0.0010000000474974513,0.29159364104270935,0.9208225011825562,0.9026337265968323,0.9496725797653198,0.9956864714622498,0.3046679198741913,0.9534044861793518,0.9456372857093811
11,0.9123891592025757,0.9916036128997803,0.0010000000474974513,0.28433674573898315,0.919776976108551,0.9043402075767517,0.8267093300819397,0.9763452410697937,0.5695441365242004,0.8376618027687073,0.812852144241333
12,0.9223998785018921,0.9928898215293884,0.0010000000474974513,0.26505863666534424,0.927677571773529,0.9164337515830994,0.8940155506134033,0.9877865314483643,0.4270815849304199,0.899945855140686,0.8861733078956604
13,0.9172131419181824,0.9917169809341431,0.0010000000474974513,0.2816101014614105,0.9252692461013794,0.9073904752731323,0.9361961483955383,0.9950083494186401,0.3107782006263733,0.9386630058288574,0.9333028793334961
14,0.9459285140037537,0.996249258518219,0.0005000000237487257,0.20674939453601837,0.9490640759468079,0.9428917169570923,0.9266788363456726,0.9932423830032349,0.3145366609096527,0.9288228750228882,0.9240140318870544
15,0.9558586478233337,0.9969742894172668,0.0005000000237487257,0.1754390150308609,0.9577953219413757,0.9538699388504028,0.9491396546363831,0.9951350688934326,0.25697124004364014,0.9502328038215637,0.9478452801704407
16,0.9540311694145203,0.9968380928039551,0.0005000000237487257,0.17057178914546967,0.9558214545249939,0.9521096348762512,0.9471600651741028,0.9955902099609375,0.24852916598320007,0.9482719302177429,0.946322500705719
17,0.9548373818397522,0.996998131275177,0.0005000000237487257,0.1633857935667038,0.9564584493637085,0.9531040191650391,0.9546977281570435,0.995924174785614,0.23125150799751282,0.9568774104118347,0.9528704285621643
18,0.9612469673156738,0.9970517754554749,0.0005000000237487257,0.1476837396621704,0.9624161720275879,0.9600107669830322,0.9031521081924438,0.990829348564148,0.35589978098869324,0.9060104489326477,0.899802029132843
19,0.9608169794082642,0.9974305629730225,0.0005000000237487257,0.1414133906364441,0.9619798064231873,0.9597823023796082,0.9380995631217957,0.9931647777557373,0.27624937891960144,0.9401376247406006,0.9362722635269165
20,0.9592313766479492,0.9969899654388428,0.0005000000237487257,0.1456955075263977,0.9603848457336426,0.9577264189720154,0.955154538154602,0.9964070916175842,0.20952680706977844,0.9561999440193176,0.9540886282920837
21,0.9591642022132874,0.9974169135093689,0.0005000000237487257,0.14779148995876312,0.9607882499694824,0.9577801823616028,0.9593421816825867,0.996333122253418,0.20948871970176697,0.9609953165054321,0.9585807919502258
22,0.965533435344696,0.9977878332138062,0.0005000000237487257,0.1307470202445984,0.9666581153869629,0.9645928740501404,0.9654332399368286,0.997346818447113,0.18409472703933716,0.9665115475654602,0.9646718502044678
23,0.9629938006401062,0.9975094795227051,0.0005000000237487257,0.1303688883781433,0.964090883731842,0.9617978930473328,0.9655855298042297,0.9970180988311768,0.18551264703273773,0.9662167429924011,0.9646718502044678
24,0.964136004447937,0.9975975751876831,0.0005000000237487257,0.12395862489938736,0.9648544192314148,0.9631819128990173,0.9674128293991089,0.9963589310646057,0.18807879090309143,0.9682019352912903,0.9667275547981262
25,0.9659097194671631,0.997649073600769,0.0005000000237487257,0.12631705403327942,0.9670239686965942,0.96502286195755,0.9396223425865173,0.9915950298309326,0.28388500213623047,0.9405842423439026,0.9389371275901794
26,0.9722251892089844,0.9986224174499512,0.0002500000118743628,0.11306127905845642,0.9728239178657532,0.9716473817825317,0.9707629084587097,0.9963423609733582,0.17532390356063843,0.9711194038391113,0.9703060984611511
27,0.9807578325271606,0.9987930059432983,0.0002500000118743628,0.09693994373083115,0.9811462759971619,0.9803816080093384,0.9756357669830322,0.9967120885848999,0.16280142962932587,0.9760725498199463,0.9752550721168518
28,0.983431875705719,0.9989076852798462,0.0002500000118743628,0.09093731641769409,0.9837301969528198,0.9830825328826904,0.977082371711731,0.997227668762207,0.1515415459871292,0.9773714542388916,0.9767016768455505
29,0.9802337884902954,0.998607337474823,0.0002500000118743628,0.09280753135681152,0.9805158376693726,0.9798306822776794,0.9765493869781494,0.9963235855102539,0.15693561732769012,0.9769160151481628,0.9763209819793701
30,0.9847353100776672,0.9989942908287048,0.0002500000118743628,0.08689171075820923,0.9849297404289246,0.984466552734375,0.9792903661727905,0.9966947436332703,0.14505797624588013,0.9795824885368347,0.9789858460426331
31,0.9863074421882629,0.9987013936042786,0.0002500000118743628,0.08078642189502716,0.9864249229431152,0.9861730933189392,0.9620831608772278,0.9947031736373901,0.20141759514808655,0.9625904560089111,0.9619308710098267
32,0.983284056186676,0.9988998174667358,0.0002500000118743628,0.08450327813625336,0.9836096167564392,0.9829884171485901,0.9758641719818115,0.9964171051979065,0.1502700299024582,0.9761596322059631,0.9757880568504333
33,0.9871808886528015,0.9990265965461731,0.0002500000118743628,0.0790279433131218,0.9873383641242981,0.987046480178833,0.9755595922470093,0.9950957298278809,0.16506461799144745,0.9762993454933167,0.9754073619842529
34,0.990298330783844,0.999366044998169,0.0001250000059371814,0.06870640069246292,0.9904171824455261,0.9902042746543884,0.9711436033248901,0.9936644434928894,0.19163459539413452,0.971289336681366,0.971067488193512
35,0.9928513765335083,0.9995150566101074,0.0001250000059371814,0.06512196362018585,0.9928777813911438,0.9928110837936401,0.9854575991630554,0.9965069890022278,0.12802672386169434,0.9855315089225769,0.9853814244270325
36,0.9957404136657715,0.9996799826622009,0.0001250000059371814,0.05939198657870293,0.995780348777771,0.9957000613212585,0.9843916296958923,0.9959945678710938,0.13721559941768646,0.9843893051147461,0.984239399433136
37,0.9946385622024536,0.9994943141937256,0.0001250000059371814,0.05992027744650841,0.9946783781051636,0.9945847988128662,0.9827927350997925,0.9964715838432312,0.12953227758407593,0.9830172657966614,0.9827927350997925
38,0.993657648563385,0.9994351863861084,0.0001250000059371814,0.05848460644483566,0.9937106370925903,0.9935904145240784,0.9861428141593933,0.9965026378631592,0.12444573640823364,0.9861428141593933,0.9861428141593933
39,0.9964794516563416,0.9995734691619873,0.0001250000059371814,0.053684018552303314,0.9965059757232666,0.9964122772216797,0.9860666990280151,0.9959522485733032,0.12697425484657288,0.9861407279968262,0.985990583896637
40,0.9959957003593445,0.9995002150535583,0.0001250000059371814,0.05283864960074425,0.9960622787475586,0.9959150552749634,0.9853814244270325,0.9957824945449829,0.13046160340309143,0.985530436038971,0.9853053092956543
41,0.99598228931427,0.9996908903121948,0.0001250000059371814,0.0516052320599556,0.9960491061210632,0.9959554076194763,0.9847723245620728,0.9962568879127502,0.12301952391862869,0.9847723245620728,0.9847723245620728
42,0.9926363825798035,0.9990526437759399,0.0001250000059371814,0.05495477840304375,0.9926628470420837,0.9926095008850098,0.9742652773857117,0.9936988353729248,0.17161251604557037,0.9744839668273926,0.9741129875183105
43,0.9943966865539551,0.9996615052223206,0.0001250000059371814,0.052295465022325516,0.9945034384727478,0.9943698048591614,0.9839348196983337,0.9958713054656982,0.13431316614151,0.9840072989463806,0.9837825298309326
44,0.9962241053581238,0.9995399713516235,0.0001250000059371814,0.049546800553798676,0.9962642192840576,0.9961972832679749,0.9808893203735352,0.9951260685920715,0.14555469155311584,0.9811119437217712,0.9808131456375122
45,0.9969363212585449,0.9996888041496277,6.25000029685907e-05,0.04778769984841347,0.9969897270202637,0.9968825578689575,0.984239399433136,0.9958468675613403,0.13211895525455475,0.9843881130218506,0.984163224697113
46,0.9974872469902039,0.9997173547744751,6.25000029685907e-05,0.04550909996032715,0.9975274205207825,0.9974737763404846,0.9863712787628174,0.9955278635025024,0.12852473556995392,0.9866717457771301,0.9863712787628174
47,0.9984950423240662,0.9998626708984375,6.25000029685907e-05,0.04408930242061615,0.9985083937644958,0.9984546899795532,0.9856860041618347,0.9958466291427612,0.12701283395290375,0.9858361482620239,0.9856860041618347
48,0.9988309741020203,0.9998821020126343,3.125000148429535e-05,0.04202941432595253,0.9988443851470947,0.998817503452301,0.9866757988929749,0.995774507522583,0.12830796837806702,0.9867509603500366,0.9866757988929749
49,0.9993147253990173,0.9998999834060669,3.125000148429535e-05,0.04035221412777901,0.9993147253990173,0.9993147253990173,0.9866757988929749,0.995578408241272,0.13045011460781097,0.9868992567062378,0.9865235090255737
